"CdS32nm_on_SLG_T"
"Wavelength nm."	"T%"
300.00000	17.97903
302.00000	19.06688
304.00000	20.63120
306.00000	22.08022
308.00000	23.43841
310.00000	24.75461
312.00000	25.99912
314.00000	27.15516
316.00000	28.18596
318.00000	29.15961
320.00000	30.05888
322.00000	30.88935
324.00000	31.63848
326.00000	32.34044
328.00000	32.99153
330.00000	33.57188
332.00000	34.11449
334.00000	34.63096
336.00000	35.11002
338.00000	35.52309
340.00000	35.90550
342.00000	36.27039
344.00000	36.63397
346.00000	36.96711
348.00000	37.29450
350.00000	37.58959
352.00000	37.88407
354.00000	38.13211
356.00000	38.38749
358.00000	38.60891
360.00000	38.88643
362.00000	39.10212
364.00000	39.33347
366.00000	39.49639
368.00000	39.72546
370.00000	39.93819
372.00000	40.16831
374.00000	40.36861
376.00000	40.57259
378.00000	40.76176
380.00000	40.97877
382.00000	41.17958
384.00000	41.39532
386.00000	41.58442
388.00000	41.76602
390.00000	41.95221
392.00000	42.14168
394.00000	42.33892
396.00000	42.53186
398.00000	42.70627
400.00000	42.88654
402.00000	43.05268
404.00000	43.24649
406.00000	43.40910
408.00000	43.57899
410.00000	43.72183
412.00000	43.88472
414.00000	44.03988
416.00000	44.20652
418.00000	44.36755
420.00000	44.54142
422.00000	44.70277
424.00000	44.87814
426.00000	45.04107
428.00000	45.19543
430.00000	45.35870
432.00000	45.51529
434.00000	45.68314
436.00000	45.82970
438.00000	45.97922
440.00000	46.12973
442.00000	46.28342
444.00000	46.43607
446.00000	46.59536
448.00000	46.75398
450.00000	46.91353
452.00000	47.06533
454.00000	47.22305
456.00000	47.39114
458.00000	47.55832
460.00000	47.70394
462.00000	47.85916
464.00000	48.00858
466.00000	48.18328
468.00000	48.35135
470.00000	48.52814
472.00000	48.71617
474.00000	48.91638
476.00000	49.13497
478.00000	49.36558
480.00000	49.61618
482.00000	49.88697
484.00000	50.17095
486.00000	50.48229
488.00000	50.83050
490.00000	51.21901
492.00000	51.63322
494.00000	52.06492
496.00000	52.52682
498.00000	53.02112
500.00000	53.55682
502.00000	54.12495
504.00000	54.74061
506.00000	55.37446
508.00000	56.03062
510.00000	56.69230
512.00000	57.38203
514.00000	58.07514
516.00000	58.79338
518.00000	59.49324
520.00000	60.20594
522.00000	60.88672
524.00000	61.54982
526.00000	62.20505
528.00000	62.83467
530.00000	63.48624
532.00000	64.10804
534.00000	64.67642
536.00000	65.18363
538.00000	65.63381
540.00000	66.09828
542.00000	66.54330
544.00000	66.95541
546.00000	67.32784
548.00000	67.67287
550.00000	68.03749
552.00000	68.37127
554.00000	68.69745
556.00000	68.99402
558.00000	69.27328
560.00000	69.53401
562.00000	69.77393
564.00000	70.03929
566.00000	70.26928
568.00000	70.49208
570.00000	70.69648
572.00000	70.92129
574.00000	71.14528
576.00000	71.35560
578.00000	71.55032
580.00000	71.73828
582.00000	71.92061
584.00000	72.09458
586.00000	72.27802
588.00000	72.46681
590.00000	72.64214
592.00000	72.79764
594.00000	72.96030
596.00000	73.11020
598.00000	73.27511
600.00000	73.39583
602.00000	73.56431
604.00000	73.68492
606.00000	73.82684
608.00000	73.93476
610.00000	74.10771
612.00000	74.23425
614.00000	74.37279
616.00000	74.47338
618.00000	74.61021
620.00000	74.76323
622.00000	74.90754
624.00000	75.03086
626.00000	75.15337
628.00000	75.25658
630.00000	75.38102
632.00000	75.45498
634.00000	75.57037
636.00000	75.67693
638.00000	75.79787
640.00000	75.91090
642.00000	76.02913
644.00000	76.14488
646.00000	76.23964
648.00000	76.32816
650.00000	76.41914
652.00000	76.51153
654.00000	76.62420
656.00000	76.72843
658.00000	76.84467
660.00000	76.92398
662.00000	77.00939
664.00000	77.07677
666.00000	77.16144
668.00000	77.24019
670.00000	77.33229
672.00000	77.44002
674.00000	77.53603
676.00000	77.64652
678.00000	77.70278
680.00000	77.75916
682.00000	77.83300
684.00000	77.94578
686.00000	78.07120
688.00000	78.15330
690.00000	78.19865
692.00000	78.27975
694.00000	78.40595
696.00000	78.49810
698.00000	78.57552
700.00000	78.61938
702.00000	78.67877
704.00000	78.76070
706.00000	78.78608
708.00000	78.91806
710.00000	79.00588
712.00000	79.09219
714.00000	79.17981
716.00000	79.24075
718.00000	79.28502
720.00000	79.39375
722.00000	79.48155
724.00000	79.63104
726.00000	79.65090
728.00000	79.65227
730.00000	79.69925
732.00000	79.72795
734.00000	79.85423
736.00000	79.91214
738.00000	79.96867
740.00000	80.02572
742.00000	80.08005
744.00000	80.14333
746.00000	80.18298
748.00000	80.23196
750.00000	80.30647
752.00000	80.35805
754.00000	80.43762
756.00000	80.51183
758.00000	80.56752
760.00000	80.60906
762.00000	80.66217
764.00000	80.71722
766.00000	80.76212
768.00000	80.79004
770.00000	80.83286
772.00000	80.88464
774.00000	80.94430
776.00000	81.01774
778.00000	81.06391
780.00000	81.11789
782.00000	81.15453
784.00000	81.22201
786.00000	81.26492
788.00000	81.30769
790.00000	81.32868
792.00000	81.39494
794.00000	81.43380
796.00000	81.48715
798.00000	81.50634
800.00000	81.55219
802.00000	81.63799
804.00000	81.66940
806.00000	81.70508
808.00000	81.71896
810.00000	81.77039
812.00000	81.82189
814.00000	81.85941
816.00000	81.90070
818.00000	81.95613
820.00000	81.99862
822.00000	82.03432
824.00000	82.07843
826.00000	82.14971
828.00000	82.20987
830.00000	82.28320
832.00000	82.34258
834.00000	82.39503
836.00000	82.43663
838.00000	82.45955
840.00000	82.49047
842.00000	82.49886
844.00000	82.54660
846.00000	82.57722
848.00000	82.63954
850.00000	82.66694
852.00000	82.72603
854.00000	82.72686
856.00000	82.77345
858.00000	82.88625
860.00000	83.01674
862.00000	83.07881
864.00000	83.07079
866.00000	83.10632
868.00000	83.10995
870.00000	83.14913
872.00000	83.19149
874.00000	83.24542
876.00000	83.19137
878.00000	83.26774
880.00000	83.23881
882.00000	83.45341
884.00000	83.45747
886.00000	83.50529
888.00000	83.40028
890.00000	83.27017
892.00000	83.62071
894.00000	83.73129
896.00000	83.83017
898.00000	83.46465
900.00000	83.42111
902.00000	83.74322
904.00000	83.75211
906.00000	83.90765
908.00000	84.05611
910.00000	84.07269
912.00000	84.28549
914.00000	84.19672
916.00000	84.55899
918.00000	84.39158
920.00000	84.23047
922.00000	84.22473
924.00000	84.28614
926.00000	84.44942
928.00000	84.44463
930.00000	84.44707
932.00000	84.33451
934.00000	84.55528
936.00000	84.67447
938.00000	84.62965
940.00000	84.34628
942.00000	84.25071
944.00000	84.56178
946.00000	84.92215
948.00000	85.07256
950.00000	84.93195
952.00000	84.89130
954.00000	85.03214
956.00000	85.11421
958.00000	85.18374
960.00000	85.13978
962.00000	85.16261
964.00000	85.02062
966.00000	85.01907
968.00000	85.13195
970.00000	85.25819
972.00000	85.28220
974.00000	85.26311
976.00000	85.37418
978.00000	85.50348
980.00000	85.55185
982.00000	85.43446
984.00000	85.27861
986.00000	85.22357
988.00000	85.27792
990.00000	85.41348
992.00000	85.50346
994.00000	85.46295
996.00000	85.63029
998.00000	85.72696
1000.00000	85.89367
1002.00000	85.79135
1004.00000	85.87717
1006.00000	85.93327
1008.00000	85.96707
1010.00000	85.81008
1012.00000	85.73454
1014.00000	85.80196
1016.00000	85.90131
1018.00000	85.95562
1020.00000	85.84957
1022.00000	85.93695
1024.00000	85.94349
1026.00000	86.03523
1028.00000	86.03885
1030.00000	86.07157
1032.00000	86.08939
1034.00000	86.08699
1036.00000	86.14484
1038.00000	86.13164
1040.00000	86.12751
1042.00000	86.12690
1044.00000	86.14316
1046.00000	86.19454
1048.00000	86.23544
1050.00000	86.34389
1052.00000	86.32643
1054.00000	86.37185
1056.00000	86.31722
1058.00000	86.37678
1060.00000	86.28592
1062.00000	86.33282
1064.00000	86.35776
1066.00000	86.45408
1068.00000	86.55097
1070.00000	86.58745
1072.00000	86.58678
1074.00000	86.58226
1076.00000	86.59345
1078.00000	86.65745
1080.00000	86.68740
1082.00000	86.70933
1084.00000	86.74972
1086.00000	86.70978
1088.00000	86.75674
1090.00000	86.82081
1092.00000	86.87389
1094.00000	86.90062
1096.00000	86.85498
1098.00000	86.91217
1100.00000	86.91961
1102.00000	86.91433
1104.00000	86.94997
1106.00000	86.99304
1108.00000	87.01386
1110.00000	86.98941
1112.00000	87.00550
1114.00000	87.05964
1116.00000	87.11005
1118.00000	87.10577
1120.00000	87.07824
1122.00000	87.06055
1124.00000	87.09975
1126.00000	87.11069
1128.00000	87.12127
1130.00000	87.15527
1132.00000	87.23222
1134.00000	87.35401
1136.00000	87.37688
1138.00000	87.48190
1140.00000	87.42619
1142.00000	87.38069
1144.00000	87.30762
1146.00000	87.38470
1148.00000	87.42886
1150.00000	87.47856
1152.00000	87.44675
1154.00000	87.50843
1156.00000	87.50137
1158.00000	87.53044
1160.00000	87.50732
1162.00000	87.52781
1164.00000	87.51073
1166.00000	87.51286
1168.00000	87.55729
1170.00000	87.63556
1172.00000	87.66048
1174.00000	87.68089
1176.00000	87.65955
1178.00000	87.70001
1180.00000	87.68391
1182.00000	87.71374
1184.00000	87.71211
1186.00000	87.72665
1188.00000	87.69601
1190.00000	87.70352
1192.00000	87.72690
1194.00000	87.77001
1196.00000	87.76610
1198.00000	87.78246
1200.00000	87.81898
1202.00000	87.85745
1204.00000	87.85081
1206.00000	87.85536
1208.00000	87.94470
1210.00000	88.05558
1212.00000	88.04064
1214.00000	88.00969
1216.00000	87.99633
1218.00000	88.03549
1220.00000	88.04778
1222.00000	87.98259
1224.00000	88.03120
1226.00000	88.07800
1228.00000	88.11721
1230.00000	88.11455
1232.00000	88.13412
1234.00000	88.13384
1236.00000	88.14825
1238.00000	88.16170
1240.00000	88.17072
1242.00000	88.18134
1244.00000	88.13828
1246.00000	88.21902
1248.00000	88.21436
1250.00000	88.24578
1252.00000	88.24113
1254.00000	88.28041
1256.00000	88.34914
1258.00000	88.33022
1260.00000	88.42049
1262.00000	88.37811
1264.00000	88.47167
1266.00000	88.40359
1268.00000	88.39611
1270.00000	88.37430
1272.00000	88.39034
1274.00000	88.44031
1276.00000	88.48682
1278.00000	88.54047
1280.00000	88.60213
1282.00000	88.65070
1284.00000	88.62243
1286.00000	88.60398
1288.00000	88.52933
1290.00000	88.55450
1292.00000	88.55675
1294.00000	88.58493
1296.00000	88.56017
1298.00000	88.56616
1300.00000	88.61852
1302.00000	88.70975
1304.00000	88.71626
1306.00000	88.75240
1308.00000	88.78262
1310.00000	88.81638
1312.00000	88.71147
1314.00000	88.66467
1316.00000	88.68540
1318.00000	88.77927
1320.00000	88.81051
1322.00000	88.78105
1324.00000	88.74619
1326.00000	88.74249
1328.00000	88.85316
1330.00000	88.88812
1332.00000	88.83910
1334.00000	88.75623
1336.00000	88.83491
1338.00000	88.83965
1340.00000	88.77377
1342.00000	88.78517
1344.00000	88.88459
1346.00000	88.95268
1348.00000	88.96219
1350.00000	88.93642
1352.00000	88.95630
1354.00000	88.96620
1356.00000	88.93409
1358.00000	88.97437
1360.00000	88.92448
1362.00000	88.98090
1364.00000	89.03105
1366.00000	89.05814
1368.00000	89.09799
1370.00000	89.06706
1372.00000	89.06464
1374.00000	89.12055
1376.00000	89.14730
1378.00000	89.21533
1380.00000	89.13028
1382.00000	89.11812
1384.00000	89.13103
1386.00000	89.16164
1388.00000	89.26102
1390.00000	89.20891
1392.00000	89.18098
1394.00000	89.17970
1396.00000	89.23765
1398.00000	89.31349
1400.00000	89.23919
1402.00000	89.28972
1404.00000	89.34600
1406.00000	89.42415
1408.00000	89.36203
1410.00000	89.28943
1412.00000	89.25137
1414.00000	89.18652
1416.00000	89.19897
1418.00000	89.22405
1420.00000	89.26864
1422.00000	89.31244
1424.00000	89.35611
1426.00000	89.41967
1428.00000	89.40999
1430.00000	89.42725
1432.00000	89.28976
1434.00000	89.32121
1436.00000	89.35015
1438.00000	89.48390
1440.00000	89.51927
1442.00000	89.36729
1444.00000	89.42155
1446.00000	89.46778
1448.00000	89.53178
1450.00000	89.63862
1452.00000	89.71719
1454.00000	89.71305
1456.00000	89.66911
1458.00000	89.61556
1460.00000	89.70510
1462.00000	89.65194
1464.00000	89.62059
1466.00000	89.60765
1468.00000	89.58227
1470.00000	89.74890
1472.00000	89.80267
1474.00000	89.85741
1476.00000	89.70663
1478.00000	89.72461
1480.00000	89.80926
1482.00000	89.87732
1484.00000	89.90588
1486.00000	89.85419
1488.00000	89.95306
1490.00000	89.92986
1492.00000	89.87761
1494.00000	89.80399
1496.00000	89.81269
1498.00000	89.97745
1500.00000	89.98573
1502.00000	90.07469
1504.00000	89.99525
1506.00000	90.00049
1508.00000	89.92651
1510.00000	89.95207
1512.00000	89.85970
1514.00000	89.95695
1516.00000	90.02617
1518.00000	89.96087
1520.00000	89.87834
1522.00000	89.84129
1524.00000	89.97687
1526.00000	90.09642
1528.00000	90.05890
1530.00000	89.96684
1532.00000	89.97746
1534.00000	90.06413
1536.00000	90.29322
1538.00000	90.08962
1540.00000	90.08627
1542.00000	90.05128
1544.00000	90.26367
1546.00000	89.97491
1548.00000	89.95571
1550.00000	89.78481
1552.00000	89.91573
1554.00000	89.90938
1556.00000	90.08145
1558.00000	90.25105
1560.00000	90.27398
1562.00000	90.21012
1564.00000	90.24858
1566.00000	90.17336
1568.00000	90.27679
1570.00000	90.26154
1572.00000	90.35690
1574.00000	90.29655
1576.00000	90.31641
1578.00000	90.20427
1580.00000	90.14646
1582.00000	90.12401
1584.00000	90.39200
1586.00000	90.53057
1588.00000	90.59911
1590.00000	90.52022
1592.00000	90.39634
1594.00000	90.20808
1596.00000	90.21087
1598.00000	90.20393
1600.00000	90.33410
1602.00000	90.31090
1604.00000	90.47534
1606.00000	90.40759
1608.00000	90.32093
1610.00000	90.22796
1612.00000	90.23148
1614.00000	90.37766
1616.00000	90.37757
1618.00000	90.44453
1620.00000	90.41531
1622.00000	90.32089
1624.00000	90.21090
1626.00000	90.18126
1628.00000	90.29288
1630.00000	90.40005
1632.00000	90.41850
1634.00000	90.31492
1636.00000	90.32329
1638.00000	90.39390
1640.00000	90.54826
1642.00000	90.61405
1644.00000	90.53267
1646.00000	90.56029
1648.00000	90.55823
1650.00000	90.61605
1652.00000	90.54845
1654.00000	90.52291
1656.00000	90.55538
1658.00000	90.58257
1660.00000	90.58040
1662.00000	90.26328
1664.00000	90.15855
1666.00000	90.14951
1668.00000	90.38537
1670.00000	90.52804
1672.00000	90.55867
1674.00000	90.62006
1676.00000	90.65741
1678.00000	90.67345
1680.00000	90.61940
1682.00000	90.45123
1684.00000	90.55026
1686.00000	90.53233
1688.00000	90.70124
1690.00000	90.77414
1692.00000	90.95412
1694.00000	90.99417
1696.00000	90.67463
1698.00000	90.39788
1700.00000	90.34418
1702.00000	90.59901
1704.00000	90.88512
1706.00000	90.83332
1708.00000	90.92302
1710.00000	90.68633
1712.00000	90.43533
1714.00000	90.13767
1716.00000	90.45956
1718.00000	90.68272
1720.00000	90.71379
1722.00000	90.72934
1724.00000	90.77778
1726.00000	91.05878
1728.00000	90.61292
1730.00000	90.61949
1732.00000	90.53407
1734.00000	90.84024
1736.00000	91.05164
1738.00000	90.92967
1740.00000	91.18693
1742.00000	91.12962
1744.00000	91.43313
1746.00000	91.20831
1748.00000	91.15248
1750.00000	91.05194
1752.00000	90.93814
1754.00000	90.81531
1756.00000	90.94481
1758.00000	91.05675
1760.00000	91.22493
1762.00000	90.93587
1764.00000	90.94589
1766.00000	90.63267
1768.00000	90.65627
1770.00000	90.58493
1772.00000	90.77025
1774.00000	90.83374
1776.00000	90.69302
1778.00000	90.97005
1780.00000	90.68343
1782.00000	90.75829
1784.00000	90.78266
1786.00000	91.28089
1788.00000	91.30454
1790.00000	90.66238
1792.00000	90.52712
1794.00000	90.52541
1796.00000	91.14204
1798.00000	91.36738
1800.00000	91.21735
1802.00000	90.98584
1804.00000	90.70378
1806.00000	90.88496
1808.00000	90.90858
1810.00000	90.90664
1812.00000	90.71419
1814.00000	90.89404
1816.00000	90.78040
1818.00000	91.15297
1820.00000	91.31598
1822.00000	91.28315
1824.00000	91.32748
1826.00000	91.20308
1828.00000	91.18654
1830.00000	91.22639
1832.00000	90.95558
1834.00000	90.87222
1836.00000	90.71519
1838.00000	90.70921
1840.00000	90.87904
1842.00000	90.78731
1844.00000	91.12772
1846.00000	90.84934
1848.00000	90.91971
1850.00000	91.12628
1852.00000	91.55132
1854.00000	91.42591
1856.00000	90.93410
1858.00000	91.20033
1860.00000	91.12735
1862.00000	90.96340
1864.00000	90.73544
1866.00000	91.00948
1868.00000	91.63870
1870.00000	92.17104
1872.00000	92.08932
1874.00000	91.45648
1876.00000	91.00667
1878.00000	91.43597
1880.00000	91.62137
1882.00000	91.71261
1884.00000	91.15735
1886.00000	91.45193
1888.00000	91.07089
1890.00000	91.04442
1892.00000	90.71054
1894.00000	90.42643
1896.00000	90.45620
1898.00000	90.44946
1900.00000	90.85622
1902.00000	91.36696
1904.00000	91.55310
1906.00000	91.85860
1908.00000	91.12888
1910.00000	90.93692
1912.00000	90.78830
1914.00000	91.59110
1916.00000	91.99909
1918.00000	91.73355
1920.00000	91.51081
1922.00000	91.75285
1924.00000	91.98628
1926.00000	92.17758
1928.00000	91.44021
1930.00000	91.08250
1932.00000	90.93413
1934.00000	91.11169
1936.00000	91.63466
1938.00000	91.67937
1940.00000	91.46979
1942.00000	91.85164
1944.00000	92.30981
1946.00000	93.07205
1948.00000	92.49645
1950.00000	91.70430
1952.00000	90.98175
1954.00000	90.44992
1956.00000	90.70399
1958.00000	90.78903
1960.00000	91.59045
1962.00000	91.78405
1964.00000	92.41988
1966.00000	92.16909
1968.00000	92.16888
1970.00000	91.92359
1972.00000	91.99297
1974.00000	91.65945
1976.00000	91.63575
1978.00000	91.56734
1980.00000	91.72814
1982.00000	92.00430
1984.00000	91.15047
1986.00000	91.87479
1988.00000	91.58002
1990.00000	92.41888
1992.00000	91.21981
1994.00000	90.87768
1996.00000	91.04642
1998.00000	91.05313
2000.00000	90.93987
